Time (s), Velocity (m/s), Acceleration (m/s/s), X (m), Y (m), Rotation (rads), Rotation (deg), Curvature (rads/m)

0.00,0.00,1.00,1.02,2.29,0.0000,0.00,-0.79
0.40,0.40,1.00,1.09,2.28,-0.0539,-3.09,-0.59
0.56,0.56,1.00,1.17,2.28,-0.0921,-5.28,-0.39
0.68,0.68,1.00,1.25,2.27,-0.1147,-6.57,-0.19
0.79,0.79,1.00,1.33,2.26,-0.1215,-6.96,0.02
0.88,0.88,1.00,1.40,2.25,-0.1119,-6.41,0.25
0.96,0.96,1.00,1.47,2.24,-0.0845,-4.84,0.51
1.03,1.03,1.00,1.54,2.24,-0.0373,-2.13,0.84
1.09,1.09,1.00,1.61,2.24,0.0326,1.87,1.23
1.12,1.12,1.00,1.64,2.24,0.0770,4.41,1.45
1.15,1.15,1.00,1.68,2.25,0.1280,7.33,1.69
1.18,1.18,1.00,1.71,2.25,0.1859,10.65,1.93
1.21,1.21,1.00,1.74,2.26,0.2507,14.36,2.17
1.23,1.23,1.00,1.77,2.27,0.3221,18.45,2.39
1.26,1.26,1.00,1.80,2.28,0.3994,22.89,2.57
1.28,1.28,1.00,1.83,2.29,0.4817,27.60,2.69
1.30,1.30,1.00,1.85,2.31,0.5673,32.51,2.74
1.32,1.32,1.00,1.87,2.31,0.6109,35.00,2.73
1.33,1.33,1.00,1.88,2.32,0.6547,37.51,2.70
1.34,1.34,1.00,1.89,2.33,0.6985,40.02,2.65
1.35,1.35,1.00,1.90,2.35,0.7420,42.51,2.59
1.38,1.38,1.00,1.93,2.37,0.8274,47.40,2.40
1.40,1.40,1.00,1.95,2.40,0.9092,52.10,2.18
1.43,1.43,1.00,1.97,2.43,0.9865,56.52,1.93
1.46,1.46,1.00,1.99,2.46,1.0583,60.64,1.68
1.49,1.49,1.00,2.01,2.50,1.1244,64.42,1.44
1.52,1.52,1.00,2.03,2.54,1.1847,67.88,1.23
1.55,1.55,1.00,2.05,2.59,1.2364,70.84,0.94
1.58,1.58,-0.69,2.06,2.63,1.2785,73.25,0.73
1.65,1.53,-1.00,2.09,2.74,1.3420,76.89,0.46
1.73,1.45,-1.00,2.12,2.86,1.3860,79.41,0.30
1.82,1.36,-1.00,2.14,2.98,1.4168,81.18,0.20
1.92,1.27,-1.00,2.16,3.10,1.4377,82.37,0.13
2.02,1.16,-1.00,2.17,3.23,1.4505,83.11,0.07
2.13,1.05,-1.00,2.19,3.35,1.4558,83.41,0.01
2.25,0.93,-1.00,2.20,3.47,1.4531,83.26,-0.06
2.37,0.81,-1.00,2.21,3.58,1.4405,82.53,-0.18
2.50,0.68,-1.00,2.23,3.67,1.4130,80.96,-0.43
2.63,0.55,-1.00,2.24,3.75,1.3590,77.86,-1.03
2.70,0.48,-1.00,2.25,3.78,1.3137,75.27,-1.72
2.76,0.42,-1.00,2.26,3.81,1.2460,71.39,-3.11
2.80,0.39,-1.00,2.26,3.82,1.1989,68.69,-4.34
2.83,0.36,-1.00,2.27,3.83,1.1387,65.24,-6.25
2.86,0.33,-1.00,2.27,3.84,1.0600,60.73,-9.31
2.87,0.31,-1.00,2.27,3.85,1.0113,57.95,-11.50
2.89,0.30,-1.00,2.28,3.85,0.9549,54.71,-14.32
2.90,0.28,-1.00,2.28,3.86,0.8890,50.94,-17.91
2.91,0.27,-1.00,2.28,3.86,0.8121,46.53,-22.44
2.92,0.26,-1.00,2.28,3.86,0.7689,44.05,-25.10
2.93,0.26,-1.00,2.28,3.86,0.7222,41.38,-28.01
2.93,0.25,-1.00,2.28,3.86,0.6719,38.50,-31.16
2.94,0.24,-1.00,2.29,3.86,0.6179,35.40,-34.52
2.95,0.24,-1.00,2.29,3.86,0.5600,32.09,-38.00
2.95,0.23,-1.00,2.29,3.86,0.4983,28.55,-41.50
2.96,0.22,-1.00,2.29,3.86,0.4329,24.80,-44.88
2.97,0.22,-1.00,2.29,3.87,0.3641,20.86,-47.96
2.97,0.21,-1.00,2.29,3.87,0.2923,16.75,-50.56
2.98,0.20,-0.51,2.29,3.87,0.2182,12.50,-52.47
2.99,0.20,-0.02,2.30,3.87,0.1424,8.16,-53.56
3.00,0.20,0.45,2.30,3.87,0.0658,3.77,-53.71
3.00,0.20,0.85,2.30,3.87,-0.0106,-0.61,-52.92
3.01,0.21,1.00,2.30,3.87,-0.0860,-4.93,-51.23
3.02,0.22,1.00,2.30,3.87,-0.1595,-9.14,-48.79
3.02,0.22,1.00,2.30,3.87,-0.2305,-13.21,-45.78
3.03,0.23,1.00,2.30,3.87,-0.2984,-17.10,-42.39
3.04,0.24,1.00,2.31,3.87,-0.3628,-20.79,-38.81
3.04,0.24,1.00,2.31,3.86,-0.4234,-24.26,-35.20
3.05,0.25,1.00,2.31,3.86,-0.4802,-27.52,-31.70
3.06,0.26,1.00,2.31,3.86,-0.5332,-30.55,-28.38
3.06,0.26,1.00,2.31,3.86,-0.5825,-33.37,-25.31
3.07,0.27,1.00,2.31,3.86,-0.6282,-35.99,-22.51
3.08,0.28,1.00,2.31,3.86,-0.6705,-38.42,-19.99
3.09,0.29,1.00,2.32,3.86,-0.7459,-42.73,-15.74
3.11,0.31,1.00,2.32,3.85,-0.8104,-46.43,-12.42
3.13,0.32,1.00,2.32,3.85,-0.8659,-49.61,-9.86
3.14,0.34,1.00,2.33,3.85,-0.9137,-52.35,-7.89
3.18,0.37,1.00,2.34,3.84,-0.9914,-56.80,-5.18
3.21,0.41,1.00,2.34,3.82,-1.0511,-60.22,-3.52
3.25,0.45,1.00,2.35,3.81,-1.0981,-62.92,-2.47
3.33,0.53,1.00,2.37,3.78,-1.1635,-66.67,-1.22
3.41,0.61,1.00,2.38,3.73,-1.2049,-69.04,-0.68
3.57,0.77,1.00,2.42,3.63,-1.2523,-71.75,-0.26
3.65,0.85,1.00,2.44,3.56,-1.2663,-72.55,-0.17
3.74,0.94,1.00,2.46,3.49,-1.2763,-73.13,-0.11
3.82,1.02,1.00,2.49,3.42,-1.2835,-73.54,-0.07
3.90,1.10,1.00,2.51,3.34,-1.2885,-73.83,-0.05
3.98,1.18,1.00,2.53,3.25,-1.2918,-74.01,-0.03
4.05,1.25,1.00,2.56,3.16,-1.2936,-74.12,-0.01
4.13,1.33,1.00,2.59,3.07,-1.2941,-74.15,0.00
4.20,1.40,1.00,2.61,2.97,-1.2935,-74.11,0.01
4.28,1.48,1.00,2.64,2.87,-1.2920,-74.02,0.02
4.35,1.55,1.00,2.67,2.76,-1.2894,-73.88,0.03
4.42,1.62,1.00,2.70,2.66,-1.2860,-73.68,0.04
4.48,1.68,1.00,2.73,2.55,-1.2817,-73.44,0.04
4.55,1.75,1.00,2.77,2.44,-1.2765,-73.14,0.05
4.61,1.81,1.00,2.80,2.34,-1.2703,-72.78,0.06
4.68,1.87,1.00,2.83,2.23,-1.2631,-72.37,0.07
4.74,1.93,1.00,2.87,2.12,-1.2548,-71.90,0.08
4.79,1.99,1.00,2.91,2.01,-1.2454,-71.35,0.09
4.85,2.05,1.00,2.94,1.90,-1.2346,-70.74,0.10
4.90,2.10,1.00,2.98,1.80,-1.2224,-70.04,0.12
4.95,2.15,1.00,3.02,1.69,-1.2085,-69.24,0.14
5.00,2.20,1.00,3.06,1.59,-1.1926,-68.33,0.16
5.05,2.25,1.00,3.10,1.50,-1.1745,-67.30,0.19
5.10,2.30,1.00,3.14,1.40,-1.1538,-66.11,0.22
5.14,2.34,1.00,3.18,1.31,-1.1299,-64.74,0.26
5.18,2.38,1.00,3.22,1.23,-1.1022,-63.15,0.32
5.22,2.42,1.00,3.26,1.15,-1.0699,-61.30,0.39
5.25,2.45,1.00,3.31,1.07,-1.0318,-59.12,0.49
5.29,2.49,1.00,3.35,1.00,-0.9866,-56.53,0.61
5.32,2.52,1.00,3.39,0.94,-0.9353,-53.59,0.71
5.35,2.55,1.00,3.44,0.88,-0.8799,-50.41,0.81
5.37,2.57,1.00,3.49,0.83,-0.8201,-46.99,0.93
5.40,2.60,1.00,3.53,0.78,-0.7557,-43.30,1.05
5.42,2.62,1.00,3.58,0.74,-0.6868,-39.35,1.19
5.45,2.64,1.00,3.62,0.70,-0.6133,-35.14,1.33
5.47,2.67,1.00,3.67,0.67,-0.5355,-30.68,1.47
5.49,2.68,0.98,3.72,0.65,-0.4538,-26.00,1.61
5.50,2.70,-1.00,3.76,0.63,-0.3688,-21.13,1.73
5.51,2.69,-1.00,3.79,0.62,-0.3254,-18.64,1.79
5.52,2.69,-0.96,3.81,0.61,-0.2814,-16.12,1.83
5.53,2.68,-0.21,3.83,0.61,-0.2371,-13.59,1.87
5.54,2.67,-0.30,3.86,0.60,-0.1926,-11.03,1.90
5.55,2.67,-1.00,3.88,0.60,-0.1480,-8.48,1.93
5.56,2.66,-1.00,3.90,0.59,-0.1034,-5.93,1.94
5.57,2.66,-1.00,3.92,0.59,-0.0590,-3.38,1.94
5.58,2.65,-1.00,3.95,0.59,-0.0150,-0.86,1.94
5.59,2.63,-1.00,3.99,0.59,0.0718,4.11,1.91
5.61,2.61,-1.00,4.04,0.60,0.1560,8.94,1.85
5.63,2.60,-1.00,4.08,0.61,0.2370,13.58,1.78
5.64,2.58,-1.00,4.12,0.62,0.3144,18.02,1.69
5.66,2.56,-1.00,4.17,0.63,0.3880,22.23,1.59
5.68,2.54,-1.00,4.21,0.65,0.4578,26.23,1.49
5.70,2.52,-1.00,4.25,0.68,0.5238,30.01,1.40
5.72,2.51,-1.00,4.29,0.70,0.5862,33.59,1.31
5.73,2.49,-1.00,4.32,0.73,0.6454,36.98,1.23
5.75,2.47,-1.00,4.36,0.76,0.7017,40.20,1.16
5.77,2.45,-1.00,4.40,0.79,0.7553,43.28,1.10
5.79,2.43,-1.00,4.43,0.82,0.8067,46.22,1.05
5.81,2.41,-1.00,4.46,0.86,0.8562,49.06,1.01
5.83,2.39,-1.00,4.49,0.89,0.9043,51.81,0.98
5.85,2.37,-1.00,4.52,0.93,0.9511,54.49,0.95
5.87,2.35,-1.00,4.55,0.97,0.9972,57.13,0.94
5.89,2.33,-1.00,4.58,1.01,1.0428,59.75,0.94
5.91,2.31,-1.00,4.60,1.06,1.0882,62.35,0.94
5.94,2.29,-1.00,4.62,1.10,1.1340,64.97,0.95
5.96,2.27,-1.00,4.64,1.14,1.1790,67.55,0.92
5.98,2.24,-1.00,4.66,1.19,1.2222,70.03,0.88
6.02,2.20,-1.00,4.69,1.28,1.3027,74.64,0.80
6.06,2.16,-1.00,4.71,1.37,1.3755,78.81,0.73
6.11,2.11,-1.00,4.72,1.47,1.4407,82.55,0.65
6.15,2.07,-1.00,4.73,1.56,1.4989,85.88,0.59
6.20,2.02,-1.00,4.74,1.65,1.5505,88.84,0.53
6.24,1.98,-1.00,4.74,1.74,1.5963,91.46,0.47
6.29,1.93,-1.00,4.73,1.83,1.6366,93.77,0.43
6.34,1.89,-1.00,4.72,1.92,1.6719,95.79,0.38
6.38,1.84,-1.00,4.71,2.00,1.7026,97.55,0.35
6.43,1.80,-1.00,4.70,2.08,1.7290,99.07,0.31
6.47,1.75,-1.00,4.69,2.16,1.7511,100.33,0.27
6.51,1.71,-1.00,4.68,2.23,1.7686,101.33,0.22
6.55,1.67,-1.00,4.66,2.29,1.7812,102.05,0.16
6.62,1.61,-1.00,4.64,2.40,1.7853,102.29,-0.17
6.67,1.56,-1.00,4.62,2.48,1.7556,100.59,-0.71
6.70,1.52,-1.00,4.62,2.53,1.6827,96.41,-2.16
6.72,1.50,-1.00,4.61,2.56,1.6246,93.08,-3.12
6.73,1.49,-1.00,4.61,2.57,1.5560,89.15,-3.73
6.74,1.48,-1.00,4.61,2.59,1.4875,85.22,-3.47
6.76,1.47,-1.00,4.62,2.61,1.4317,82.03,-2.40
6.79,1.44,-1.00,4.62,2.65,1.3822,79.20,-0.22
6.83,1.40,-1.00,4.63,2.71,1.3951,79.93,0.43
6.88,1.34,-1.00,4.65,2.79,1.4297,81.91,0.39
6.97,1.25,-1.00,4.66,2.90,1.4652,83.95,0.25
7.03,1.19,-1.00,4.67,2.97,1.4787,84.73,0.15
7.09,1.13,-1.00,4.67,3.05,1.4880,85.26,0.10
7.17,1.05,-1.00,4.68,3.13,1.4948,85.65,0.07
7.26,0.97,-1.00,4.69,3.22,1.5002,85.95,0.06
7.35,0.87,-1.00,4.69,3.30,1.5045,86.20,0.05
7.45,0.77,-1.00,4.70,3.38,1.5084,86.42,0.05
7.56,0.66,-1.00,4.70,3.46,1.5119,86.63,0.05
7.67,0.55,-1.00,4.71,3.53,1.5156,86.84,0.06
7.92,0.30,-1.00,4.71,3.64,1.5264,87.46,0.22
8.06,0.16,-1.00,4.71,3.67,1.5413,88.31,1.19
8.13,0.09,-1.00,4.71,3.68,1.5645,89.64,6.26
8.17,0.06,-1.00,4.71,3.68,1.5976,91.53,26.63
8.18,0.04,-1.00,4.71,3.68,1.6369,93.79,82.41
8.19,0.03,-1.00,4.71,3.68,1.6743,95.93,179.70
8.20,0.02,-1.00,4.71,3.68,1.7431,99.87,513.35
8.21,0.01,-0.91,4.71,3.68,1.8048,103.41,1028.56
8.22,0.01,-0.50,4.71,3.68,1.8494,105.97,1553.51
8.22,0.00,-0.25,4.71,3.68,1.9094,109.40,2483.57
8.23,0.00,-0.14,4.71,3.68,1.9934,114.21,4256.28
8.23,0.00,-0.09,4.71,3.68,2.0489,117.39,5740.36
8.24,0.00,-0.05,4.71,3.68,2.1171,121.30,7903.03
8.25,0.00,-0.04,4.71,3.68,2.2022,126.18,11085.90
8.25,0.00,-0.03,4.71,3.68,2.2526,129.07,13199.17
8.26,0.00,-0.02,4.71,3.68,2.3094,132.32,15741.81
8.26,0.00,-0.01,4.71,3.68,2.3731,135.97,18764.55
8.27,0.00,-0.01,4.71,3.68,2.4448,140.08,22286.88
8.28,0.00,-0.01,4.71,3.68,2.5250,144.67,26264.72
8.28,0.00,-0.01,4.71,3.68,2.5684,147.16,28383.00
8.28,0.00,-0.01,4.71,3.68,2.6140,149.77,30548.39
8.29,0.00,-0.00,4.71,3.68,2.6619,152.52,32719.13
8.29,0.00,-0.00,4.71,3.68,2.7120,155.39,34843.37
8.30,0.00,-0.00,4.71,3.68,2.7641,158.37,36860.21
8.30,0.00,-0.00,4.71,3.68,2.8180,161.46,38702.17
8.31,0.00,-0.00,4.71,3.68,2.8736,164.64,40299.06
8.31,0.00,-0.00,4.71,3.68,2.9305,167.91,41583.29
8.32,0.00,-0.00,4.71,3.68,2.9885,171.23,42495.76
8.32,0.00,-0.00,4.71,3.68,3.0471,174.58,42991.90
8.33,0.00,0.00,4.71,3.68,3.1059,177.96,43046.51
8.33,0.00,0.00,4.71,3.68,-3.1186,-178.68,42656.68
8.34,0.00,0.00,4.71,3.68,-3.0604,-175.35,41842.13
8.34,0.00,0.00,4.71,3.68,-3.0032,-172.07,40642.97
8.35,0.00,0.00,4.71,3.68,-2.9472,-168.86,39115.16
8.35,0.00,0.00,4.71,3.68,-2.8928,-165.75,37324.79
8.36,0.00,0.00,4.71,3.68,-2.8402,-162.73,35341.99
8.36,0.00,0.01,4.71,3.68,-2.7896,-159.83,33235.41
8.37,0.00,0.01,4.71,3.68,-2.7411,-157.05,31067.99
8.37,0.00,0.01,4.71,3.68,-2.6949,-154.40,28894.09
8.38,0.00,0.01,4.71,3.68,-2.6090,-149.49,24694.14
8.39,0.00,0.02,4.71,3.68,-2.5321,-145.08,20872.71
8.39,0.00,0.02,4.71,3.68,-2.4634,-141.14,17534.73
8.40,0.00,0.03,4.71,3.68,-2.4023,-137.64,14695.73
8.40,0.00,0.04,4.71,3.68,-2.3480,-134.53,12321.12
8.41,0.00,0.05,4.71,3.68,-2.2996,-131.76,10354.08
8.41,0.00,0.08,4.71,3.68,-2.2565,-129.29,8732.41
8.42,0.00,0.12,4.71,3.68,-2.1834,-125.10,6296.99
8.42,0.00,0.18,4.71,3.68,-2.1243,-121.71,4634.00
8.43,0.00,0.27,4.71,3.68,-2.0757,-118.93,3480.92
8.43,0.00,0.46,4.71,3.68,-2.0353,-116.61,2666.15
8.44,0.01,0.85,4.71,3.68,-1.9722,-113.00,1647.72
8.44,0.01,1.00,4.71,3.68,-1.9256,-110.33,1079.93
8.45,0.02,1.00,4.71,3.68,-1.8615,-106.66,530.43
8.45,0.02,1.00,4.71,3.68,-1.8199,-104.27,296.56
8.46,0.03,1.00,4.71,3.68,-1.7691,-101.36,118.93
8.48,0.05,1.00,4.71,3.68,-1.7200,-98.55,33.20
8.56,0.13,1.00,4.71,3.67,-1.6658,-95.44,2.41
8.71,0.28,1.00,4.71,3.64,-1.6441,-94.20,0.24
8.87,0.44,1.00,4.71,3.59,-1.6370,-93.79,0.07
9.03,0.60,1.00,4.70,3.50,-1.6333,-93.58,0.03
9.20,0.77,1.00,4.69,3.38,-1.6287,-93.32,0.05
9.29,0.86,1.00,4.69,3.32,-1.6255,-93.14,0.05
9.37,0.94,1.00,4.69,3.24,-1.6218,-92.93,0.05
9.45,1.02,1.00,4.68,3.16,-1.6177,-92.69,0.05
9.53,1.10,1.00,4.68,3.08,-1.6132,-92.43,0.05
9.61,1.18,1.00,4.67,2.98,-1.6083,-92.15,0.05
9.69,1.26,1.00,4.67,2.89,-1.6030,-91.84,0.06
9.77,1.34,1.00,4.67,2.79,-1.5972,-91.51,0.06
9.84,1.41,1.00,4.67,2.69,-1.5910,-91.16,0.06
9.92,1.49,1.00,4.66,2.58,-1.5842,-90.77,0.06
9.99,1.56,1.00,4.66,2.47,-1.5770,-90.35,0.07
10.06,1.63,1.00,4.66,2.36,-1.5691,-89.90,0.07
10.13,1.70,1.00,4.66,2.24,-1.5606,-89.42,0.08
10.19,1.76,1.00,4.66,2.13,-1.5514,-88.89,0.08
10.26,1.83,1.00,4.67,2.01,-1.5413,-88.31,0.09
10.32,1.89,1.00,4.67,1.90,-1.5304,-87.68,0.10
10.38,1.95,1.00,4.68,1.78,-1.5184,-87.00,0.11
10.44,2.01,1.00,4.68,1.66,-1.5053,-86.25,0.12
10.50,2.07,1.00,4.69,1.55,-1.4908,-85.42,0.13
10.55,2.12,1.00,4.70,1.44,-1.4749,-84.50,0.15
10.60,2.17,1.00,4.71,1.32,-1.4571,-83.49,0.17
10.65,2.22,1.00,4.73,1.21,-1.4374,-82.35,0.19
10.70,2.27,1.00,4.74,1.11,-1.4152,-81.08,0.22
10.75,2.32,1.00,4.76,1.00,-1.3901,-79.65,0.26
10.79,2.36,1.00,4.78,0.90,-1.3617,-78.02,0.30
10.83,2.40,1.00,4.80,0.81,-1.3293,-76.16,0.36
10.87,2.44,1.00,4.83,0.71,-1.2919,-74.02,0.43
10.91,2.48,1.00,4.85,0.63,-1.2486,-71.54,0.53
10.94,2.51,1.00,4.88,0.54,-1.1981,-68.64,0.65
10.98,2.55,1.00,4.92,0.47,-1.1385,-65.23,0.81
11.01,2.58,1.00,4.95,0.40,-1.0680,-61.19,1.02
11.03,2.60,1.00,4.99,0.34,-0.9885,-56.64,1.16
11.06,2.63,1.00,5.03,0.28,-0.9037,-51.78,1.30
11.07,2.64,1.00,5.05,0.26,-0.8595,-49.24,1.36
11.09,2.66,1.00,5.07,0.23,-0.8142,-46.65,1.42
11.10,2.67,1.00,5.09,0.21,-0.7681,-44.01,1.48
11.11,2.68,1.00,5.12,0.19,-0.7213,-41.33,1.53
11.12,2.69,1.00,5.14,0.17,-0.6739,-38.61,1.57
11.13,2.70,1.00,5.16,0.15,-0.6262,-35.88,1.60
11.14,2.71,1.00,5.19,0.13,-0.5783,-33.14,1.62
11.15,2.72,1.00,5.21,0.12,-0.5305,-30.40,1.64
11.16,2.73,1.00,5.24,0.10,-0.4830,-27.67,1.64
11.18,2.75,1.00,5.26,0.09,-0.4358,-24.97,1.63
11.19,2.76,1.00,5.29,0.08,-0.3894,-22.31,1.62
11.20,2.77,1.00,5.32,0.07,-0.3437,-19.69,1.59
11.21,2.78,1.00,5.34,0.06,-0.2990,-17.13,1.56
11.22,2.79,1.00,5.37,0.05,-0.2554,-14.63,1.52
11.24,2.81,1.00,5.43,0.04,-0.1717,-9.84,1.43
11.26,2.83,1.00,5.48,0.03,-0.0933,-5.34,1.32
11.28,2.85,0.11,5.54,0.03,-0.0203,-1.16,1.22
11.30,2.85,-1.00,5.60,0.03,0.0471,2.70,1.11
11.32,2.83,-1.00,5.66,0.04,0.1093,6.26,1.01
11.34,2.81,-1.00,5.72,0.04,0.1666,9.54,0.92
11.36,2.79,-1.00,5.77,0.05,0.2193,12.57,0.84
11.38,2.76,-1.00,5.83,0.07,0.2679,15.35,0.77
11.40,2.74,-1.00,5.89,0.09,0.3129,17.93,0.70
11.45,2.70,-1.00,6.01,0.13,0.3936,22.55,0.61
11.50,2.65,-1.00,6.12,0.18,0.4645,26.61,0.54
11.54,2.60,-1.00,6.23,0.24,0.5285,30.28,0.50
11.59,2.56,-1.00,6.33,0.30,0.5882,33.70,0.49
11.64,2.51,-1.00,6.43,0.37,0.6461,37.02,0.51
11.68,2.47,-1.00,6.51,0.44,0.7054,40.42,0.57
11.72,2.42,-1.00,6.59,0.51,0.7699,44.11,0.70
11.76,2.38,-1.00,6.65,0.58,0.8437,48.34,0.89
11.80,2.35,-1.00,6.71,0.64,0.9273,53.13,1.10
11.81,2.33,-1.00,6.73,0.67,0.9726,55.73,1.21
11.83,2.32,-1.00,6.75,0.71,1.0201,58.45,1.31
11.85,2.30,-1.00,6.77,0.74,1.0695,61.28,1.41
11.86,2.29,-1.00,6.79,0.77,1.1203,64.19,1.50
11.88,2.27,-1.00,6.80,0.80,1.1721,67.16,1.57
11.89,2.26,-1.00,6.81,0.83,1.2244,70.16,1.62
11.90,2.24,-1.00,6.82,0.86,1.2767,73.15,1.65
11.92,2.23,-1.00,6.83,0.89,1.3282,76.10,1.65
11.93,2.21,-1.00,6.84,0.92,1.3783,78.97,1.62
11.95,2.20,-1.00,6.84,0.95,1.4265,81.73,1.57
11.96,2.19,-1.00,6.84,0.98,1.4723,84.36,1.49
11.97,2.17,-1.00,6.85,1.01,1.5151,86.81,1.39
12.00,2.15,-1.00,6.85,1.07,1.5907,91.14,1.15
12.03,2.12,-1.00,6.85,1.13,1.6513,94.61,0.88
12.09,2.06,-1.00,6.83,1.25,1.7252,98.85,0.35
12.15,2.00,-1.00,6.81,1.37,1.7386,99.61,-0.12
12.18,1.97,-1.00,6.80,1.43,1.7244,98.80,-0.32
12.21,1.93,-1.00,6.79,1.50,1.6974,97.26,-0.50
12.25,1.90,-1.00,6.78,1.57,1.6664,95.48,-0.43
12.29,1.86,-1.00,6.78,1.64,1.6389,93.90,-0.37
12.32,1.82,-1.00,6.77,1.71,1.6147,92.52,-0.32
12.36,1.78,-1.00,6.77,1.78,1.5935,91.30,-0.27
12.41,1.74,-1.00,6.77,1.85,1.5750,90.24,-0.23
12.45,1.70,-1.00,6.77,1.92,1.5591,89.33,-0.20
12.49,1.65,-1.00,6.77,2.00,1.5455,88.55,-0.16
12.54,1.61,-1.00,6.77,2.08,1.5341,87.90,-0.14
12.59,1.56,-1.00,6.78,2.15,1.5248,87.36,-0.11
12.64,1.51,-1.00,6.78,2.23,1.5174,86.94,-0.08
12.69,1.45,-1.00,6.79,2.31,1.5119,86.62,-0.06
12.75,1.40,-1.00,6.79,2.39,1.5082,86.41,-0.04
12.81,1.34,-1.00,6.79,2.46,1.5062,86.30,-0.01
12.87,1.28,-1.00,6.80,2.54,1.5060,86.29,0.01
12.93,1.22,-1.00,6.81,2.62,1.5075,86.37,0.03
12.99,1.15,-1.00,6.81,2.70,1.5107,86.56,0.05
13.06,1.08,-1.00,6.81,2.78,1.5145,86.78,0.04
13.14,1.01,-1.00,6.82,2.85,1.5176,86.95,0.04
13.21,0.93,-1.00,6.82,2.93,1.5200,87.09,0.03
13.30,0.85,-1.00,6.83,3.00,1.5217,87.19,0.02
13.38,0.77,-1.00,6.83,3.07,1.5228,87.25,0.01
13.47,0.68,-1.00,6.83,3.13,1.5232,87.27,-0.00
13.65,0.50,-1.00,6.84,3.24,1.5207,87.13,-0.06
13.85,0.30,-1.00,6.84,3.32,1.5080,86.40,-0.40
14.05,0.09,-1.00,6.85,3.36,1.4208,81.41,-14.58
14.08,0.07,-1.00,6.85,3.36,1.3696,78.47,-39.27
14.09,0.05,-1.00,6.85,3.36,1.3252,75.93,-75.09
14.11,0.04,-1.00,6.85,3.36,1.2525,71.76,-169.96
14.12,0.03,-1.00,6.85,3.36,1.1960,68.53,-280.33
14.13,0.02,-1.00,6.85,3.36,1.1147,63.87,-503.07
14.13,0.02,-0.76,6.85,3.36,1.0595,60.70,-700.13
14.14,0.01,-0.51,6.85,3.36,0.9899,56.72,-1002.22
14.14,0.01,-0.38,6.85,3.36,0.9482,54.33,-1211.86
14.15,0.01,-0.28,6.85,3.36,0.9006,51.60,-1474.98
14.15,0.01,-0.20,6.85,3.36,0.8463,48.49,-1805.19
14.16,0.00,-0.14,6.85,3.36,0.7841,44.92,-2217.66
14.16,0.00,-0.10,6.85,3.36,0.7126,40.83,-2726.75
14.17,0.00,-0.08,6.85,3.36,0.6306,36.13,-3340.83
14.17,0.00,-0.06,6.85,3.36,0.5853,33.54,-3685.99
14.18,0.00,-0.05,6.85,3.36,0.5370,30.77,-4052.81
14.18,0.00,-0.04,6.85,3.36,0.4856,27.82,-4435.74
14.19,0.00,-0.03,6.85,3.36,0.4311,24.70,-4826.51
14.19,0.00,-0.03,6.85,3.36,0.3735,21.40,-5213.88
14.20,0.00,-0.02,6.85,3.36,0.3131,17.94,-5583.78
14.20,0.00,-0.01,6.85,3.36,0.2501,14.33,-5919.92
14.21,0.00,-0.01,6.85,3.36,0.1847,10.58,-6204.94
14.22,0.00,-0.01,6.85,3.36,0.1176,6.74,-6422.17
14.22,0.00,-0.00,6.85,3.36,0.0492,2.82,-6557.66
14.23,0.00,0.00,6.85,3.36,-0.0199,-1.14,-6602.12
14.23,0.00,0.01,6.85,3.36,-0.0889,-5.09,-6552.37
14.24,0.00,0.01,6.85,3.36,-0.1573,-9.01,-6411.86
14.25,0.00,0.01,6.85,3.36,-0.2244,-12.86,-6190.10
14.25,0.00,0.02,6.85,3.36,-0.2897,-16.60,-5901.20
14.26,0.00,0.03,6.85,3.36,-0.3527,-20.21,-5561.94
14.26,0.00,0.03,6.85,3.36,-0.4131,-23.67,-5189.68
14.27,0.00,0.04,6.85,3.36,-0.4706,-26.96,-4800.70
14.27,0.00,0.05,6.85,3.36,-0.5251,-30.08,-4408.98
14.28,0.00,0.06,6.85,3.36,-0.5764,-33.03,-4025.67
14.28,0.00,0.08,6.85,3.36,-0.6247,-35.79,-3658.92
14.29,0.00,0.10,6.85,3.36,-0.6700,-38.39,-3314.19
14.29,0.00,0.15,6.85,3.36,-0.7519,-43.08,-2701.68
14.30,0.01,0.21,6.85,3.36,-0.8233,-47.17,-2194.66
14.31,0.01,0.29,6.85,3.36,-0.8854,-50.73,-1784.39
14.31,0.01,0.39,6.85,3.36,-0.9397,-53.84,-1456.32
14.32,0.01,0.60,6.85,3.36,-0.9872,-56.56,-1195.18
14.32,0.01,1.00,6.85,3.36,-1.0657,-61.06,-821.33
14.33,0.02,1.00,6.85,3.36,-1.1275,-64.60,-580.68
14.33,0.02,1.00,6.85,3.36,-1.1770,-67.44,-421.94
14.34,0.03,1.00,6.85,3.36,-1.2508,-71.66,-239.51
14.35,0.04,1.00,6.85,3.36,-1.3028,-74.64,-147.18
14.36,0.05,1.00,6.85,3.36,-1.3707,-78.53,-66.09
14.38,0.07,1.00,6.85,3.36,-1.4127,-80.94,-34.82
14.43,0.13,1.00,6.85,3.36,-1.4894,-85.33,-6.10
14.66,0.35,1.00,6.85,3.30,-1.5505,-88.84,-0.25
14.90,0.59,1.00,6.85,3.19,-1.5510,-88.86,0.09
15.01,0.70,1.00,6.85,3.12,-1.5430,-88.41,0.12
15.12,0.81,1.00,6.86,3.03,-1.5318,-87.77,0.15
15.22,0.92,1.00,6.86,2.94,-1.5177,-86.96,0.17
15.33,1.02,1.00,6.87,2.85,-1.5006,-85.98,0.19
15.42,1.11,1.00,6.87,2.75,-1.4801,-84.81,0.22
15.51,1.20,1.00,6.89,2.64,-1.4558,-83.41,0.25
15.60,1.29,1.00,6.90,2.54,-1.4267,-81.74,0.30
15.68,1.37,1.00,6.92,2.43,-1.3916,-79.73,0.37
15.75,1.44,1.00,6.94,2.33,-1.3488,-77.28,0.46
15.82,1.51,1.00,6.96,2.23,-1.2960,-74.26,0.59
15.88,1.57,1.00,6.99,2.14,-1.2299,-70.47,0.78
15.94,1.63,1.00,7.03,2.05,-1.1455,-65.63,1.07
15.97,1.66,1.00,7.04,2.01,-1.0945,-62.71,1.26
15.99,1.68,-0.80,7.06,1.98,-1.0362,-59.37,1.50
16.02,1.66,-1.00,7.09,1.94,-0.9697,-55.56,1.78
16.04,1.64,-1.00,7.11,1.91,-0.8936,-51.20,2.11
16.06,1.62,-1.00,7.13,1.88,-0.8110,-46.47,2.25
16.09,1.59,-1.00,7.16,1.86,-0.7268,-41.64,2.34
16.11,1.57,-1.00,7.19,1.83,-0.6424,-36.81,2.37
16.13,1.55,-1.00,7.22,1.81,-0.5594,-32.05,2.33
16.15,1.53,-1.00,7.25,1.80,-0.4793,-27.46,2.24
16.18,1.50,-1.00,7.28,1.78,-0.4032,-23.10,2.10
16.20,1.48,-1.00,7.31,1.77,-0.3322,-19.03,1.92
16.23,1.45,-1.00,7.35,1.76,-0.2668,-15.29,1.74
16.25,1.43,-1.00,7.38,1.75,-0.2073,-11.88,1.54
16.28,1.40,-1.00,7.42,1.74,-0.1538,-8.81,1.35
16.30,1.38,-1.00,7.46,1.74,-0.1061,-6.08,1.18
16.33,1.35,-1.00,7.49,1.73,-0.0641,-3.67,1.01
16.39,1.29,-1.00,7.57,1.73,0.0047,0.27,0.73
16.46,1.22,-1.00,7.66,1.74,0.0551,3.16,0.50
16.53,1.15,-1.00,7.74,1.74,0.0897,5.14,0.31
16.61,1.07,-1.00,7.83,1.75,0.1106,6.33,0.16
16.70,0.98,-1.00,7.92,1.76,0.1192,6.83,0.03
16.80,0.88,-1.00,8.02,1.77,0.1165,6.68,-0.09
