Time (s), Velocity (m/s), Acceleration (m/s/s), X (m), Y (m), Rotation (rads), Rotation (deg), Curvature (rads/m)

0.00,0.00,1.00,0.97,2.08,0.0000,0.00,0.17
0.46,0.46,1.00,1.07,2.08,0.0178,1.02,0.16
0.65,0.65,1.00,1.18,2.08,0.0343,1.96,0.15
0.80,0.80,1.00,1.28,2.09,0.0495,2.84,0.14
0.92,0.92,1.00,1.39,2.09,0.0636,3.64,0.13
1.03,1.03,1.00,1.49,2.10,0.0764,4.38,0.12
1.13,1.13,1.00,1.60,2.11,0.0880,5.04,0.11
1.22,1.22,1.00,1.70,2.12,0.0985,5.64,0.09
1.30,1.30,1.00,1.81,2.13,0.1077,6.17,0.08
1.37,1.37,1.00,1.91,2.14,0.1157,6.63,0.07
1.45,1.45,1.00,2.01,2.15,0.1226,7.02,0.06
1.51,1.51,1.00,2.11,2.17,0.1282,7.34,0.05
1.58,1.58,1.00,2.21,2.18,0.1325,7.59,0.04
1.64,1.64,1.00,2.30,2.19,0.1356,7.77,0.02
1.70,1.70,1.00,2.40,2.21,0.1374,7.87,0.01
1.75,1.75,1.00,2.49,2.22,0.1378,7.89,-0.00
1.81,1.81,1.00,2.59,2.23,0.1367,7.83,-0.02
1.86,1.86,1.00,2.68,2.24,0.1342,7.69,-0.04
1.90,1.90,1.00,2.77,2.26,0.1301,7.45,-0.06
1.95,1.95,1.00,2.86,2.27,0.1242,7.12,-0.08
1.99,1.99,1.00,2.94,2.28,0.1165,6.68,-0.10
2.04,2.04,1.00,3.03,2.29,0.1069,6.12,-0.13
2.08,2.08,1.00,3.11,2.30,0.0951,5.45,-0.16
2.12,2.12,1.00,3.19,2.30,0.0809,4.63,-0.19
2.15,2.15,1.00,3.27,2.31,0.0640,3.67,-0.24
2.19,2.19,1.00,3.34,2.31,0.0443,2.54,-0.28
2.22,2.22,1.00,3.42,2.32,0.0213,1.22,-0.34
2.25,2.25,1.00,3.49,2.32,-0.0053,-0.30,-0.41
2.28,2.28,1.00,3.56,2.31,-0.0359,-2.06,-0.48
2.31,2.31,1.00,3.63,2.31,-0.0711,-4.08,-0.58
2.34,2.34,1.00,3.69,2.31,-0.1115,-6.39,-0.68
2.37,2.37,1.00,3.75,2.30,-0.1576,-9.03,-0.81
2.39,2.39,1.00,3.81,2.29,-0.2100,-12.03,-0.95
2.42,2.42,1.00,3.87,2.27,-0.2666,-15.28,-1.02
2.44,2.44,1.00,3.92,2.26,-0.3249,-18.62,-1.09
2.46,2.46,1.00,3.97,2.24,-0.3846,-22.04,-1.15
2.48,2.48,1.00,4.02,2.22,-0.4455,-25.53,-1.21
2.50,2.50,1.00,4.06,2.19,-0.5075,-29.08,-1.26
2.52,2.52,1.00,4.10,2.17,-0.5702,-32.67,-1.31
2.54,2.54,1.00,4.14,2.14,-0.6335,-36.29,-1.35
2.56,2.56,1.00,4.18,2.11,-0.6970,-39.94,-1.38
2.58,2.58,1.00,4.21,2.08,-0.7606,-43.58,-1.41
2.59,2.59,1.00,4.24,2.05,-0.8242,-47.22,-1.44
2.61,2.61,1.00,4.27,2.02,-0.8874,-50.84,-1.45
2.63,2.63,1.00,4.30,1.98,-0.9502,-54.44,-1.46
2.64,2.64,-0.95,4.32,1.95,-1.0126,-58.02,-1.47
2.66,2.63,-1.00,4.34,1.91,-1.0743,-61.56,-1.48
2.67,2.61,-1.00,4.36,1.88,-1.1356,-65.06,-1.48
2.69,2.60,-1.00,4.38,1.84,-1.1963,-68.54,-1.49
2.71,2.58,-1.00,4.39,1.80,-1.2565,-71.99,-1.50
2.72,2.56,-1.00,4.40,1.76,-1.3165,-75.43,-1.51
2.74,2.55,-1.00,4.41,1.72,-1.3762,-78.85,-1.52
2.75,2.53,-1.00,4.42,1.68,-1.4359,-82.27,-1.54
2.77,2.52,-1.00,4.42,1.65,-1.4957,-85.70,-1.56
2.78,2.50,-1.00,4.42,1.61,-1.5560,-89.15,-1.59
2.80,2.49,-1.00,4.42,1.57,-1.6168,-92.64,-1.63
2.81,2.47,-1.00,4.42,1.53,-1.6786,-96.18,-1.67
2.83,2.46,-1.00,4.42,1.50,-1.7415,-99.78,-1.73
2.84,2.44,-1.00,4.41,1.46,-1.8058,-103.47,-1.79
2.86,2.43,-1.00,4.40,1.43,-1.8719,-107.25,-1.86
2.87,2.41,-1.00,4.39,1.39,-1.9399,-111.15,-1.94
2.89,2.40,-1.00,4.37,1.36,-2.0101,-115.17,-2.02
2.90,2.38,-1.00,4.36,1.33,-2.0827,-119.33,-2.11
2.92,2.37,-1.00,4.34,1.30,-2.1579,-123.64,-2.20
2.93,2.35,1.00,4.32,1.27,-2.2357,-128.09,-2.29
2.95,2.37,1.00,4.30,1.24,-2.3133,-132.54,-2.21
2.96,2.38,1.00,4.27,1.22,-2.3878,-136.81,-2.11
2.97,2.40,1.00,4.25,1.20,-2.4588,-140.88,-1.99
2.99,2.41,1.00,4.22,1.18,-2.5262,-144.74,-1.88
3.00,2.43,1.00,4.19,1.16,-2.5900,-148.40,-1.76
3.02,2.44,-0.91,4.16,1.14,-2.6504,-151.86,-1.65
3.03,2.43,-1.00,4.13,1.12,-2.7075,-155.13,-1.55
3.05,2.41,-1.00,4.09,1.11,-2.7615,-158.22,-1.45
3.06,2.40,-1.00,4.06,1.10,-2.8128,-161.16,-1.37
3.08,2.38,-1.00,4.02,1.08,-2.8616,-163.96,-1.30
3.09,2.37,-1.00,3.99,1.08,-2.9083,-166.63,-1.23
3.11,2.35,-1.00,3.95,1.07,-2.9532,-169.20,-1.18
3.14,2.32,-1.00,3.88,1.06,-3.0385,-174.10,-1.11
3.17,2.29,-1.00,3.80,1.05,-3.1201,-178.77,-1.08
3.21,2.25,-1.00,3.73,1.05,3.0829,176.64,-1.08
3.24,2.22,-1.00,3.65,1.06,3.0018,171.99,-1.13
3.27,2.19,-1.00,3.58,1.07,2.9171,167.14,-1.23
3.29,2.17,-1.00,3.55,1.08,2.8725,164.58,-1.30
3.30,2.16,-1.00,3.52,1.09,2.8259,161.91,-1.39
3.32,2.14,-1.00,3.48,1.10,2.7768,159.10,-1.50
3.34,2.12,-1.00,3.45,1.12,2.7246,156.11,-1.63
3.35,2.11,-1.00,3.42,1.13,2.6690,152.92,-1.78
3.37,2.09,-1.00,3.40,1.15,2.6094,149.51,-1.96
3.38,2.08,-1.00,3.37,1.16,2.5450,145.82,-2.17
3.40,2.06,-1.00,3.35,1.18,2.4755,141.83,-2.41
3.41,2.05,-1.00,3.32,1.20,2.4001,137.52,-2.67
3.42,2.04,-1.00,3.30,1.22,2.3186,132.84,-2.95
3.44,2.02,-1.00,3.28,1.24,2.2331,127.95,-3.05
3.45,2.01,0.05,3.27,1.26,2.1466,122.99,-3.12
3.47,2.01,1.00,3.25,1.29,2.0598,118.02,-3.15
3.48,2.02,1.00,3.24,1.31,1.9732,113.06,-3.14
3.49,2.04,1.00,3.23,1.34,1.8874,108.14,-3.09
3.51,2.05,1.00,3.22,1.37,1.8031,103.31,-3.02
3.52,2.06,1.00,3.22,1.39,1.7206,98.58,-2.91
3.53,2.08,1.00,3.22,1.42,1.6403,93.98,-2.79
3.55,2.09,1.00,3.22,1.45,1.5625,89.53,-2.66
3.56,2.10,1.00,3.22,1.48,1.4873,85.22,-2.52
3.58,2.12,1.00,3.22,1.51,1.4148,81.06,-2.37
3.59,2.13,1.00,3.23,1.54,1.3450,77.07,-2.23
3.60,2.15,1.00,3.23,1.57,1.2779,73.22,-2.09
3.62,2.16,1.00,3.24,1.60,1.2133,69.52,-1.96
3.63,2.18,1.00,3.26,1.63,1.1512,65.96,-1.84
3.65,2.19,1.00,3.27,1.66,1.0914,62.53,-1.72
3.67,2.21,1.00,3.29,1.69,1.0337,59.23,-1.61
3.68,2.22,1.00,3.31,1.72,0.9781,56.04,-1.51
3.70,2.24,1.00,3.33,1.75,0.9244,52.97,-1.42
3.71,2.26,1.00,3.35,1.78,0.8725,49.99,-1.33
3.73,2.27,1.00,3.38,1.81,0.8222,47.11,-1.25
3.75,2.29,1.00,3.41,1.84,0.7734,44.31,-1.18
3.77,2.31,1.00,3.44,1.86,0.7261,41.60,-1.11
3.79,2.33,1.00,3.47,1.89,0.6800,38.96,-1.05
3.80,2.35,1.00,3.50,1.92,0.6353,36.40,-0.99
3.82,2.37,1.00,3.54,1.94,0.5917,33.90,-0.94
3.86,2.41,1.00,3.62,1.99,0.5078,29.09,-0.84
3.91,2.45,1.00,3.71,2.04,0.4279,24.52,-0.75
3.95,2.49,1.00,3.81,2.08,0.3517,20.15,-0.68
3.99,2.54,1.00,3.92,2.12,0.2859,16.38,-0.49
4.04,2.58,1.00,4.03,2.15,0.2350,13.47,-0.36
4.09,2.63,1.00,4.16,2.17,0.1962,11.24,-0.26
4.11,2.66,1.00,4.22,2.18,0.1806,10.35,-0.22
4.14,2.68,1.00,4.29,2.20,0.1673,9.58,-0.18
4.16,2.71,1.00,4.35,2.21,0.1560,8.94,-0.15
4.19,2.73,1.00,4.42,2.22,0.1467,8.40,-0.12
4.21,2.76,1.00,4.49,2.23,0.1391,7.97,-0.10
4.24,2.78,1.00,4.56,2.24,0.1333,7.64,-0.07
4.26,2.81,-0.86,4.63,2.25,0.1291,7.40,-0.05
4.29,2.78,-1.00,4.70,2.25,0.1265,7.25,-0.03
4.31,2.76,-1.00,4.77,2.26,0.1254,7.19,-0.00
4.34,2.73,-1.00,4.84,2.27,0.1258,7.21,0.02
4.37,2.71,-1.00,4.91,2.28,0.1277,7.32,0.04
4.39,2.68,-1.00,4.98,2.29,0.1311,7.51,0.06
4.42,2.65,-1.00,5.05,2.30,0.1361,7.80,0.08
4.45,2.63,-1.00,5.12,2.31,0.1425,8.17,0.10
4.47,2.60,-1.00,5.19,2.32,0.1506,8.63,0.13
4.50,2.57,-1.00,5.26,2.33,0.1604,9.19,0.15
4.53,2.54,-1.00,5.33,2.34,0.1720,9.85,0.18
4.55,2.52,-1.00,5.39,2.36,0.1854,10.62,0.21
4.58,2.49,-1.00,5.46,2.37,0.2008,11.50,0.24
4.61,2.46,-1.00,5.53,2.38,0.2184,12.51,0.28
4.64,2.44,-1.00,5.59,2.40,0.2383,13.65,0.32
4.66,2.41,-1.00,5.65,2.41,0.2607,14.94,0.37
4.72,2.36,-1.00,5.78,2.45,0.3141,18.00,0.48
4.77,2.30,-1.00,5.89,2.49,0.3806,21.81,0.62
4.82,2.25,-1.00,6.00,2.54,0.4550,26.07,0.66
4.87,2.20,-1.00,6.09,2.59,0.5303,30.38,0.70
4.92,2.15,-1.00,6.18,2.65,0.6069,34.77,0.75
4.97,2.11,-1.00,6.26,2.71,0.6853,39.26,0.81
5.01,2.06,-1.00,6.34,2.77,0.7663,43.91,0.88
5.06,2.02,-1.00,6.40,2.84,0.8511,48.77,0.98
5.08,1.99,-1.00,6.43,2.87,0.8953,51.30,1.05
5.10,1.97,-1.00,6.45,2.90,0.9411,53.92,1.12
5.12,1.95,-1.00,6.48,2.94,0.9886,56.64,1.20
5.14,1.93,-1.00,6.50,2.97,1.0382,59.49,1.30
5.16,1.91,-1.00,6.52,3.00,1.0902,62.46,1.41
5.18,1.89,-1.00,6.53,3.04,1.1450,65.60,1.54
5.20,1.87,-1.00,6.55,3.07,1.2029,68.92,1.69
5.22,1.85,-1.00,6.56,3.10,1.2645,72.45,1.86
5.24,1.84,-1.00,6.57,3.14,1.3303,76.22,2.06
5.25,1.82,-1.00,6.57,3.17,1.4006,80.25,2.29
5.27,1.80,-1.00,6.58,3.20,1.4762,84.58,2.55
5.29,1.78,-1.00,6.58,3.23,1.5573,89.22,2.83
5.30,1.77,-1.00,6.58,3.26,1.6443,94.21,3.12
5.31,1.76,-1.00,6.58,3.27,1.6900,96.83,3.27
5.32,1.75,-1.00,6.57,3.29,1.7373,99.54,3.42
5.33,1.74,-1.00,6.57,3.30,1.7860,102.33,3.56
5.34,1.74,-1.00,6.57,3.31,1.8362,105.21,3.70
5.34,1.73,-1.00,6.56,3.33,1.8877,108.16,3.82
5.35,1.72,-1.00,6.56,3.34,1.9404,111.18,3.93
5.36,1.71,-1.00,6.55,3.35,1.9942,114.26,4.03
5.37,1.70,-1.00,6.55,3.36,2.0489,117.39,4.10
5.38,1.70,-1.00,6.54,3.38,2.1043,120.57,4.14
5.38,1.69,-0.19,6.54,3.39,2.1602,123.77,4.16
5.39,1.69,0.88,6.53,3.40,2.2164,126.99,4.15
5.40,1.69,1.00,6.52,3.41,2.2726,130.21,4.12
5.41,1.70,1.00,6.51,3.42,2.3287,133.42,4.05
5.42,1.71,1.00,6.50,3.43,2.3842,136.60,3.96
5.42,1.72,1.00,6.49,3.44,2.4381,139.69,3.71
5.43,1.73,1.00,6.48,3.45,2.4893,142.62,3.47
5.44,1.74,1.00,6.47,3.46,2.5377,145.40,3.22
5.45,1.74,1.00,6.45,3.46,2.5835,148.03,2.99
5.47,1.76,1.00,6.43,3.48,2.6676,152.84,2.57
5.48,1.78,1.00,6.40,3.49,2.7425,157.14,2.20
5.50,1.80,1.00,6.37,3.50,2.8093,160.96,1.90
5.52,1.82,1.00,6.34,3.51,2.8692,164.39,1.65
5.54,1.84,1.00,6.30,3.52,2.9232,167.49,1.44
5.56,1.85,1.00,6.27,3.53,2.9723,170.30,1.28
5.60,1.89,1.00,6.19,3.54,3.0587,175.25,1.04
5.64,1.94,1.00,6.11,3.54,3.1338,179.55,0.89
5.68,1.98,1.00,6.03,3.54,-3.0815,-176.56,0.80
5.72,2.02,1.00,5.95,3.53,-3.0176,-172.90,0.76
5.76,2.06,1.00,5.87,3.52,-2.9550,-169.31,0.76
5.80,2.10,0.42,5.79,3.50,-2.8910,-165.64,0.80
5.84,2.12,-1.00,5.71,3.48,-2.8229,-161.74,0.89
5.88,2.08,-1.00,5.64,3.45,-2.7474,-157.41,1.04
5.92,2.04,-1.00,5.57,3.42,-2.6604,-152.43,1.29
5.93,2.02,-1.00,5.54,3.40,-2.6110,-149.60,1.46
5.95,2.01,-1.00,5.51,3.38,-2.5566,-146.48,1.66
5.97,1.99,-1.00,5.48,3.36,-2.4962,-143.02,1.92
5.99,1.97,-1.00,5.45,3.34,-2.4289,-139.16,2.22
6.00,1.96,-1.00,5.43,3.32,-2.3534,-134.84,2.59
6.02,1.94,-1.00,5.41,3.30,-2.2687,-129.98,3.02
6.02,1.93,-1.00,5.40,3.29,-2.2232,-127.38,3.14
6.03,1.93,-1.00,5.39,3.28,-2.1768,-124.72,3.25
6.04,1.92,-1.00,5.38,3.26,-2.1296,-122.02,3.35
6.05,1.91,-1.00,5.38,3.25,-2.0818,-119.28,3.42
6.05,1.90,0.03,5.37,3.24,-2.0335,-116.51,3.46
6.06,1.90,1.00,5.36,3.23,-1.9851,-113.74,3.49
6.07,1.91,1.00,5.36,3.21,-1.9368,-110.97,3.49
6.08,1.92,1.00,5.35,3.20,-1.8888,-108.22,3.46
6.08,1.93,1.00,5.35,3.19,-1.8413,-105.50,3.41
6.09,1.93,1.00,5.35,3.18,-1.7946,-102.82,3.34
6.10,1.94,1.00,5.34,3.16,-1.7488,-100.20,3.24
6.10,1.95,1.00,5.34,3.15,-1.7041,-97.64,3.13
6.12,1.96,1.00,5.34,3.12,-1.6186,-92.74,2.88
6.13,1.98,1.00,5.34,3.09,-1.5389,-88.17,2.60
6.15,1.99,1.00,5.34,3.06,-1.4655,-83.97,2.31
6.16,2.01,1.00,5.35,3.03,-1.3983,-80.12,2.04
6.18,2.02,1.00,5.35,3.00,-1.3373,-76.62,1.78
6.20,2.04,1.00,5.36,2.97,-1.2821,-73.46,1.55
6.21,2.06,1.00,5.37,2.93,-1.2322,-70.60,1.35
6.23,2.07,1.00,5.38,2.90,-1.1873,-68.03,1.17
6.27,2.11,1.00,5.42,2.83,-1.1102,-63.61,0.89
6.30,2.15,1.00,5.45,2.76,-1.0474,-60.01,0.68
6.34,2.19,1.00,5.50,2.69,-0.9961,-57.07,0.52
6.39,2.23,1.00,5.55,2.61,-0.9538,-54.65,0.40
6.43,2.27,1.00,5.61,2.53,-0.9190,-52.65,0.32
6.47,2.32,1.00,5.67,2.45,-0.8901,-51.00,0.25
6.52,2.36,1.00,5.74,2.37,-0.8661,-49.62,0.20
6.57,2.41,1.00,5.81,2.29,-0.8463,-48.49,0.16
6.61,2.46,1.00,5.89,2.20,-0.8299,-47.55,0.13
6.66,2.50,1.00,5.97,2.11,-0.8149,-46.69,0.13
6.71,2.55,1.00,6.06,2.02,-0.7989,-45.78,0.13
6.76,2.60,1.00,6.14,1.94,-0.7820,-44.80,0.14
6.81,2.65,1.00,6.23,1.85,-0.7637,-43.75,0.15
6.85,2.70,1.00,6.32,1.76,-0.7438,-42.61,0.16
6.90,2.74,1.00,6.42,1.68,-0.7220,-41.36,0.18
6.94,2.79,1.00,6.51,1.60,-0.6978,-39.98,0.20
6.99,2.83,1.00,6.61,1.52,-0.6710,-38.44,0.23
7.03,2.87,0.32,6.71,1.44,-0.6407,-36.71,0.26
7.07,2.89,-1.00,6.80,1.37,-0.6065,-34.75,0.31
7.11,2.85,-1.00,6.90,1.31,-0.5674,-32.51,0.36
7.15,2.81,-1.00,7.00,1.25,-0.5224,-29.93,0.44
7.19,2.77,-1.00,7.09,1.20,-0.4702,-26.94,0.53
7.23,2.73,-1.00,7.19,1.15,-0.4091,-23.44,0.65
7.27,2.69,-1.00,7.28,1.12,-0.3371,-19.32,0.80
7.30,2.66,-1.00,7.37,1.09,-0.2520,-14.44,1.00
7.32,2.64,-1.00,7.41,1.08,-0.2055,-11.78,1.04
7.34,2.62,-1.00,7.46,1.07,-0.1586,-9.08,1.07
7.35,2.61,-1.00,7.50,1.07,-0.1112,-6.37,1.11
7.37,2.59,-1.00,7.54,1.06,-0.0635,-3.64,1.14
7.39,2.58,-1.00,7.59,1.06,-0.0156,-0.89,1.17
7.40,2.56,-1.00,7.63,1.06,0.0325,1.86,1.19
7.42,2.54,-1.00,7.67,1.06,0.0807,4.63,1.22
7.43,2.53,-1.00,7.70,1.07,0.1290,7.39,1.24
7.45,2.51,-1.00,7.74,1.07,0.1773,10.16,1.27
7.46,2.50,-1.00,7.78,1.08,0.2256,12.93,1.29
7.48,2.48,-1.00,7.82,1.09,0.2739,15.69,1.31
7.49,2.47,-1.00,7.85,1.10,0.3222,18.46,1.33
7.51,2.45,-1.00,7.88,1.11,0.3705,21.23,1.36
7.52,2.44,-1.00,7.92,1.13,0.4190,24.00,1.38
7.54,2.43,-1.00,7.95,1.14,0.4675,26.79,1.41
7.55,2.41,-1.00,7.98,1.16,0.5163,29.58,1.44
7.56,2.40,-1.00,8.01,1.17,0.5653,32.39,1.48
7.58,2.38,-1.00,8.03,1.19,0.6148,35.23,1.52
7.59,2.37,-1.00,8.06,1.21,0.6649,38.09,1.56
7.61,2.36,-1.00,8.09,1.23,0.7156,41.00,1.61
7.62,2.34,-1.00,8.11,1.25,0.7671,43.95,1.67
7.63,2.33,-1.00,8.13,1.28,0.8197,46.97,1.73
7.65,2.32,-1.00,8.15,1.30,0.8736,50.05,1.81
7.66,2.30,-1.00,8.17,1.32,0.9288,53.22,1.89
7.67,2.29,-1.00,8.19,1.35,0.9857,56.48,1.99
7.68,2.28,-1.00,8.20,1.37,1.0444,59.84,2.09
7.70,2.27,-1.00,8.21,1.40,1.1052,63.33,2.20
7.71,2.25,-1.00,8.23,1.42,1.1684,66.94,2.33
7.72,2.24,-1.00,8.24,1.45,1.2340,70.70,2.46
7.73,2.23,-1.00,8.24,1.47,1.3023,74.62,2.60
7.74,2.22,-1.00,8.25,1.50,1.3734,78.69,2.74
7.76,2.21,0.51,8.26,1.52,1.4473,82.93,2.88
7.77,2.21,-0.42,8.26,1.55,1.5232,87.27,2.94
7.78,2.21,-1.00,8.26,1.58,1.5997,91.65,2.96
7.79,2.19,0.24,8.26,1.60,1.6759,96.02,2.93
7.80,2.20,1.00,8.25,1.63,1.7512,100.34,2.85
7.82,2.21,1.00,8.25,1.65,1.8249,104.56,2.74
7.83,2.22,1.00,8.24,1.68,1.8964,108.66,2.61
7.84,2.23,1.00,8.23,1.70,1.9653,112.60,2.45
7.85,2.25,1.00,8.22,1.73,2.0310,116.37,2.28
7.87,2.26,1.00,8.20,1.75,2.0936,119.95,2.10
7.88,2.27,1.00,8.19,1.78,2.1527,123.34,1.92
7.89,2.29,1.00,8.17,1.80,2.2085,126.54,1.75
7.91,2.30,1.00,8.15,1.83,2.2609,129.54,1.59
7.92,2.31,1.00,8.13,1.85,2.3101,132.36,1.44
7.93,2.33,1.00,8.11,1.88,2.3562,135.00,1.31
7.96,2.36,1.00,8.06,1.93,2.4399,139.80,1.07
8.00,2.39,1.00,8.00,1.97,2.5135,144.02,0.88
8.03,2.42,1.00,7.93,2.02,2.5785,147.74,0.73
8.07,2.46,1.00,7.85,2.06,2.6361,151.04,0.60
8.10,2.50,1.00,7.77,2.11,2.6876,153.99,0.51
8.14,2.54,1.00,7.68,2.15,2.7338,156.64,0.43
8.18,2.58,1.00,7.58,2.19,2.7757,159.03,0.37
8.23,2.62,1.00,7.48,2.22,2.8138,161.22,0.32
8.27,2.66,1.00,7.37,2.26,2.8487,163.22,0.28
8.32,2.71,1.00,7.25,2.29,2.8813,165.08,0.25
8.34,2.73,1.00,7.18,2.31,2.8967,165.97,0.23
8.37,2.76,1.00,7.12,2.33,2.9116,166.82,0.21
8.39,2.78,1.00,7.05,2.34,2.9259,167.64,0.20
8.42,2.81,1.00,6.98,2.36,2.9396,168.43,0.19
8.44,2.84,1.00,6.91,2.37,2.9527,169.18,0.17
8.47,2.86,1.00,6.84,2.38,2.9652,169.89,0.16
8.50,2.89,1.00,6.76,2.40,2.9771,170.57,0.15
8.52,2.92,1.00,6.68,2.41,2.9884,171.22,0.13
8.55,2.95,1.00,6.60,2.42,2.9992,171.84,0.12
8.58,2.97,1.00,6.51,2.43,3.0094,172.42,0.11
8.61,3.00,1.00,6.42,2.45,3.0191,172.98,0.10
8.64,3.03,1.00,6.33,2.46,3.0282,173.51,0.10
8.67,3.07,1.00,6.24,2.47,3.0369,174.00,0.09
8.70,3.10,1.00,6.14,2.48,3.0451,174.47,0.08
8.74,3.13,1.00,6.04,2.49,3.0529,174.92,0.07
8.77,3.16,1.00,5.93,2.49,3.0602,175.34,0.07
8.80,3.20,-0.32,5.83,2.50,3.0671,175.73,0.06
8.84,3.19,-1.00,5.71,2.51,3.0737,176.11,0.06
8.88,3.15,-1.00,5.60,2.52,3.0798,176.46,0.05
8.91,3.11,-1.00,5.48,2.53,3.0856,176.79,0.05
8.95,3.07,-1.00,5.36,2.53,3.0911,177.11,0.04
8.97,3.05,-1.00,5.29,2.53,3.0938,177.26,0.04
8.99,3.03,-1.00,5.23,2.54,3.0963,177.40,0.04
9.02,3.01,-1.00,5.17,2.54,3.0988,177.55,0.04
9.04,2.99,-1.00,5.10,2.54,3.1012,177.68,0.04
9.06,2.96,-1.00,5.03,2.55,3.1035,177.82,0.03
9.08,2.94,-1.00,4.96,2.55,3.1058,177.95,0.03
9.11,2.92,-1.00,4.89,2.55,3.1080,178.07,0.03
9.13,2.89,-1.00,4.82,2.55,3.1101,178.20,0.03
9.16,2.87,-1.00,4.75,2.56,3.1122,178.31,0.03
9.18,2.84,-1.00,4.68,2.56,3.1142,178.43,0.03
9.21,2.82,-1.00,4.61,2.56,3.1161,178.54,0.03
9.23,2.79,-1.00,4.53,2.56,3.1180,178.65,0.02
9.26,2.76,-1.00,4.46,2.56,3.1199,178.75,0.02
9.29,2.73,-1.00,4.38,2.56,3.1216,178.86,0.02
9.32,2.71,-1.00,4.30,2.57,3.1234,178.96,0.02
9.35,2.68,-1.00,4.22,2.57,3.1251,179.05,0.02
9.38,2.65,-1.00,4.14,2.57,3.1267,179.15,0.02
9.41,2.62,-1.00,4.06,2.57,3.1283,179.24,0.02
9.44,2.58,-1.00,3.98,2.57,3.1298,179.32,0.02
9.47,2.55,-1.00,3.89,2.57,3.1312,179.41,0.02
9.51,2.52,-1.00,3.81,2.57,3.1326,179.48,0.02
9.54,2.48,-1.00,3.72,2.57,3.1338,179.56,0.01
9.58,2.45,-1.00,3.64,2.57,3.1350,179.62,0.01
9.61,2.41,-1.00,3.55,2.57,3.1362,179.69,0.01
9.65,2.38,-1.00,3.46,2.58,3.1373,179.75,0.01
9.69,2.34,-1.00,3.37,2.58,3.1383,179.81,0.01
9.73,2.30,-1.00,3.28,2.58,3.1393,179.87,0.01
9.76,2.26,-1.00,3.19,2.58,3.1402,179.92,0.01
9.80,2.22,-1.00,3.11,2.58,3.1412,179.97,0.01
9.84,2.18,-1.00,3.02,2.58,-3.1412,-179.97,0.01
9.89,2.14,-1.00,2.93,2.58,-3.1403,-179.93,0.01
9.93,2.10,-1.00,2.84,2.58,-3.1395,-179.88,0.01
9.97,2.05,-1.00,2.75,2.58,-3.1387,-179.83,0.01
10.01,2.01,-1.00,2.66,2.58,-3.1379,-179.79,0.01
10.06,1.97,-1.00,2.57,2.57,-3.1372,-179.75,0.01
10.10,1.92,-1.00,2.49,2.57,-3.1365,-179.71,0.01
10.15,1.88,-1.00,2.40,2.57,-3.1357,-179.67,0.01
10.19,1.83,-1.00,2.32,2.57,-3.1350,-179.63,0.01
10.24,1.78,-1.00,2.23,2.57,-3.1344,-179.59,0.01
10.29,1.74,-1.00,2.15,2.57,-3.1337,-179.55,0.01
10.34,1.69,-1.00,2.06,2.57,-3.1330,-179.51,0.01
10.39,1.64,-1.00,1.98,2.57,-3.1324,-179.47,0.01
10.44,1.59,-1.00,1.90,2.57,-3.1317,-179.43,0.01
10.49,1.54,-1.00,1.82,2.57,-3.1310,-179.40,0.01
10.54,1.49,-1.00,1.75,2.57,-3.1304,-179.36,0.01
10.59,1.44,-1.00,1.67,2.57,-3.1297,-179.32,0.01
10.64,1.38,-1.00,1.60,2.57,-3.1290,-179.28,0.01
10.69,1.33,-1.00,1.53,2.57,-3.1283,-179.24,0.01
10.75,1.28,-1.00,1.46,2.56,-3.1276,-179.20,0.01
10.80,1.22,-1.00,1.39,2.56,-3.1269,-179.16,0.01
10.85,1.17,-1.00,1.32,2.56,-3.1261,-179.11,0.01
10.91,1.11,-1.00,1.26,2.56,-3.1253,-179.07,0.01
11.02,1.00,-1.00,1.14,2.56,-3.1236,-178.97,0.02
11.14,0.89,-1.00,1.03,2.56,-3.1216,-178.86,0.02
11.25,0.77,-1.00,0.94,2.56,-3.1192,-178.72,0.03
11.37,0.65,-1.00,0.85,2.55,-3.1161,-178.54,0.05
11.49,0.53,-1.00,0.78,2.55,-3.1118,-178.30,0.08
11.74,0.28,-1.00,0.68,2.55,-3.0928,-177.20,0.50
11.87,0.15,-1.00,0.65,2.55,-3.0600,-175.33,3.07
11.94,0.09,-1.00,0.64,2.55,-3.0073,-172.31,16.06
11.97,0.05,-1.00,0.64,2.55,-2.9345,-168.13,63.77
11.99,0.04,-1.00,0.64,2.54,-2.8532,-163.48,177.03
12.00,0.03,-1.00,0.64,2.54,-2.7818,-159.39,344.11
12.00,0.02,-1.00,0.64,2.54,-2.7311,-156.48,507.35
12.01,0.01,-0.79,0.64,2.54,-2.6643,-152.65,783.48
12.01,0.01,-0.56,0.64,2.54,-2.6225,-150.26,992.73
12.02,0.01,-0.38,0.64,2.54,-2.5734,-147.44,1275.18
12.02,0.01,-0.26,0.64,2.54,-2.5150,-144.10,1660.21
12.03,0.01,-0.17,0.64,2.54,-2.4452,-140.10,2187.76
12.04,0.00,-0.12,0.64,2.54,-2.3609,-135.27,2907.63
12.04,0.00,-0.09,0.64,2.54,-2.3123,-132.48,3355.84
12.05,0.00,-0.07,0.64,2.54,-2.2588,-129.42,3869.39
12.05,0.00,-0.05,0.64,2.54,-2.2001,-126.06,4449.16
12.06,0.00,-0.04,0.64,2.54,-2.1358,-122.37,5089.95
12.06,0.00,-0.03,0.64,2.54,-2.0655,-118.35,5777.41
12.07,0.00,-0.02,0.64,2.54,-1.9894,-113.98,6484.96
12.08,0.00,-0.02,0.64,2.54,-1.9075,-109.29,7172.12
12.09,0.00,-0.01,0.64,2.54,-1.8204,-104.30,7785.86
12.09,0.00,-0.01,0.64,2.54,-1.7753,-101.71,8046.60
12.09,0.00,-0.01,0.64,2.54,-1.7291,-99.07,8266.74
12.10,0.00,-0.00,0.64,2.54,-1.6823,-96.39,8439.66
12.10,0.00,-0.00,0.64,2.54,-1.6349,-93.67,8559.85
12.11,0.00,-0.00,0.64,2.54,-1.5872,-90.94,8623.34
12.11,0.00,0.00,0.64,2.54,-1.5393,-88.20,8627.98
12.12,0.00,0.00,0.64,2.54,-1.4915,-85.46,8573.60
12.12,0.00,0.01,0.64,2.54,-1.4440,-82.74,8462.03
12.12,0.00,0.01,0.64,2.54,-1.3971,-80.05,8296.96
12.13,0.00,0.01,0.64,2.54,-1.3508,-77.40,8083.65
12.13,0.00,0.01,0.64,2.54,-1.3055,-74.80,7828.58
12.14,0.00,0.02,0.64,2.54,-1.2611,-72.26,7538.99
12.14,0.00,0.03,0.64,2.54,-1.1761,-67.39,6886.46
12.15,0.00,0.03,0.64,2.54,-1.0965,-62.83,6183.97
12.16,0.00,0.05,0.64,2.54,-1.0228,-58.60,5479.83
12.16,0.00,0.06,0.64,2.54,-0.9550,-54.71,4808.70
12.17,0.00,0.08,0.64,2.54,-0.8929,-51.16,4191.74
12.18,0.00,0.10,0.64,2.54,-0.8364,-47.92,3639.10
12.18,0.00,0.13,0.64,2.54,-0.7850,-44.98,3153.06
12.18,0.00,0.18,0.64,2.54,-0.7383,-42.30,2730.96
12.19,0.01,0.28,0.64,2.54,-0.6572,-37.65,2055.93
12.20,0.01,0.42,0.64,2.54,-0.5899,-33.80,1562.50
12.20,0.01,0.61,0.64,2.54,-0.5336,-30.57,1202.44
12.21,0.01,1.00,0.64,2.54,-0.4861,-27.85,938.01
12.21,0.02,1.00,0.64,2.54,-0.4109,-23.54,594.29
12.22,0.02,1.00,0.64,2.54,-0.3545,-20.31,395.45
12.23,0.03,1.00,0.64,2.54,-0.2763,-15.83,197.34
12.24,0.04,1.00,0.64,2.54,-0.2251,-12.90,111.12
12.26,0.06,1.00,0.64,2.54,-0.1624,-9.31,44.80
12.27,0.08,1.00,0.64,2.54,-0.1258,-7.21,22.18
12.31,0.11,1.00,0.65,2.54,-0.0848,-4.86,7.74
